0.0158085592004611
0.0623125193055232
0.0580553881929441
-0.0131150409829904
-0.00040288781210217
0.0440537433293045
0.0146568190844589
0.0667301782311317
-0.0231516685111386
0.0360445040250638
0.0281508575538246
0.084599849461471
-0.0509946193708213
0.017591224874923
0.0215019683721274
-0.0969946582740421
0.0837787320773528
0.163108940956001
0.0123114786170689
0.0395457024786225
0.00323724406738777
0.0469567308257718
0.0100228392505957
0.0251986774690893
0.112468519359623
-0.00952715842992336
0.00531355029503138
0.0315854261403479
0.0300308763779914
0.109893312721822
0.14076434859432
-0.0084355042313252
0.0186041838320194
0.0868599416678923
0.0519819493448428
0.180840337175163
0.173172043480919
0.129510266600374
0.139921992214701
0.105001072888588
0.170284063494522
0.198654603177571
0.159541835199311
0.259050772945118
0.206356754234729
0.177500087867544
0.211734553578562
0.258196966305835
0.193639867241116
0.219455685994897
0.352573975077425
0.220394344483463
0.30158822936159
0.305360056194479
0.354081312583524
0.311114159182637
0.171734472649382
0.262548744114712
0.340942702841414
0.338425468732562
0.433839883874377
0.416214050531008
0.380920782641427
0.370401415119426
0.299016784717279
0.479779450583066
0.403503590977951
0.329682922156147
0.420466379696587
0.395769179925927
0.35392337297227
0.398912994840337
0.330703435369799
0.290497053286203
0.262002437577484
0.323346275431473
0.302001231922084
0.34718265387864
0.241862293837028
0.298401787104535
0.22537649538242
0.382939018534873
0.278422558053084
0.337400844738729
0.292656761742978
0.305158556277208
0.193837080860441
0.306245007509985
0.307813061514929
0.123165075459359
0.210000458553734
0.178039958222823
0.21028996702079
0.151771196160339
0.200053990850662
0.207775590480107
0.181975948384668
0.155641996480144
0.0889081369761884
0.148075922199436
0.110970304788919
0.064884813603108
0.117844005656633
0.101990562112577
0.122895424278217
0.163722730882857
0.143734096203305
0.181026845173339
0.0800881350832171
0.0741404623786413
0.113438917268286
0.188161432698081
0.185000575677209
0.114341668053996
0.0916043579150581
0.0462315009632774
0.156671667358157
0.125037571908849
0.0658216981744062
0.108797989363178
0.0348699072188314
0.148657917577898
0.119274534695665
0.210352098856884
0.0616343469019452
0.178946852152994
0.138419278659958
0.136183237774568
0.168702029025613
0.193358791479037
0.0809472725225341
0.201261249006526
0.0756317515622284
0.0832419336143551
0.104135444691935
0.175402327943916
0.0858969543061907
0.156946515003573
0.161620658871085
0.149548308566108
0.170386604153966
0.084831554928703
0.194668943730682
0.150781393519143
0.182423692966909
0.0975613306498133
0.150154267592719
0.192248428467614
0.199891281966045
0.14578257946066
0.0321292763444768
0.0447706748306082
0.0853489468616205
0.0889357131831656
0.0471854855555114
-0.0317963702402959
0.0858609766644782
-0.0479357782877331
-0.033471583728776
-0.122726271711911
-0.182882498516651
-0.0403475480948789
0.0297989150012622
0.121551254387655
0.0565166770410775
0.0540931887739495
0.268882070737933
0.253749209977118
0.236710487327211
0.317634427387222
0.357676386240929
0.508694282076438
0.532774754982751
0.567832298478464
0.62024421321702
0.619670742769514
0.762926792751338
0.783116346395397
0.805265357529978
0.86161181237272
0.918286131376995
0.931546147893344
1.06549258367883
1.15055954608677
1.25716959074
1.21119596213454
1.07231665027457
1.05093044946452
0.917969407522851
0.865104133852703
0.790255220288032
0.708982601421012
0.696993710607069
0.549758293928405
0.566328169282246
0.500173419844322
0.439722050344501
0.314266575963086
0.273676467852783
0.260322667061247
0.100259835056154
0.016156343115918
0.0411156535214993
-0.245507977264214
-0.21545657791203
-0.143667563831097
-0.3613184670068
-0.438321509303179
-0.544187775467843
-0.515776210633649
-0.733480072439671
-0.597037552910467
-0.45780378772792
-0.415309433078721
-0.313125800585568
-0.267084738109283
-0.168448135714352
-0.195947066879477
-0.0497567743229162
-0.0680741163966545
0.120333588067267
0.136556250326633
0.255766220578643
0.197312886440005
0.241804679009746
0.279262361842076
0.128760051736461
0.135561862888353
0.138499742989988
0.273733386721805
0.252749398391425
0.198553487983883
0.309814845299658
0.242938541945486
0.157893983087338
0.187464031764171
0.170345874878299
0.288538137868496
0.211924054808133
0.18457178499296
0.215497064268929
0.203717307824655
0.28937356497521
0.271777901828223
0.264213601065281
0.271072661272374
0.253618847630256
0.205213699085705
0.280923033324879
0.213972456499705
0.202619871436737
0.203696796463821
0.30206527307194
0.308826457856082
0.173018873096411
0.254741598098553
0.275929737709217
0.233999673529348
0.303754149758451
0.279612888783594
0.260435984247748
0.241393378757701
0.304301059784075
0.314101303386348
0.296288044918285
0.262019854987867
0.321244467326368
0.231037380139061
0.284789733796731
0.34857440931559
0.270455274349799
0.238934672212285
0.379484623669494
0.271152898571926
0.306766187817508
0.245690910236738
0.301438210506522
0.311594897982536
0.289658328196479
0.306921020072089
0.352032092392143
0.222783219385468
0.30445344318527
0.195801730364993
0.297968220955552
0.394259799120798
0.345977122523057
0.299760314965173
0.284380709590193
0.32889233556142
0.356510280517902
0.305588586054559
0.386775872993594
0.266431315978713
0.208522362276738
0.272187002502869
0.300817626310226
0.29333107786717
0.270786778180995
0.381203492769185
0.234711982138927
0.292123219713284
0.269435275533033
0.295381212280602
0.286964671470785
0.345377851309783
0.270592464926967
0.282798671468239
0.330074360725316
0.380403261691432
0.234664027402597
0.418564282984692
0.285844182839904
0.363335788864034
0.388900097187012
0.408049207448688
0.321499283356519
0.354055672155986
0.350194274024771
0.333502256431094
0.382843491966929
0.392662867407446
0.362587633691474
0.39229407927251
0.524827864754509
0.396243165154327
0.437609308791638
0.384439886849939
0.386645652992593
0.401222887709389
0.452212822773347
0.38938066991854
0.342282980892248
0.443063814055334
0.424054945361945
0.465348772860013
0.461051386637767
0.498749738289141
0.512804133125041
0.406957256648172
0.402482922982529
0.509306224091938
0.504976821753285
0.448171920236892
0.562472742856347
0.507725925294607
0.517726438509932
0.530717684608423
0.560201699077021
0.604190976981605
0.511394620550115
0.434486540242238
0.568221237598374
0.46768852464454
0.572786650846019
0.47765550862353
0.578231337210137
0.459885652703081
0.441081911769119
0.541086149779733
0.421613898895885
0.520323033446942
0.504712273407006
0.472185021913102
0.458799080984661
0.575293544885884
0.450203568379369
0.455947467246002
0.415048313556044
0.417839122835455
0.425858610446169
0.537043123516777
0.428573171070017
0.410118200762564
0.418737740798084
0.473394900367504
0.368416827416353
0.462086801561651
0.360693261603444
0.41724290314648
0.32896780916655
0.443636047925941
0.44801046741025
0.375517050852366
0.422300633396409
0.411091269548586
0.461097845331887
0.409754350471517
0.455500751701406
0.397882185469075
0.371498794527072
0.402207477285884
0.394333194089643
0.448575826127015
0.401878026478866
0.362816184052825
0.397328833115875
0.464693656041373
0.38471145605435
0.372718879388555
0.455042148417039
0.411096887238017
0.388093118802064
0.369479915914797
0.332622084492538
0.414475689975638
0.391149126406951
0.423945912620152
0.336172670602657
0.476091725094239
0.435360196877555
0.333668687542671
0.465852981447476
0.384621110171035
0.430111080896619
0.426973119421049
0.373089944924383
0.274930012036458
0.445777764829262
0.402898134504899
0.391107057263198
0.442945635420515
0.388515963961314
0.457559552064547
0.432544873025951
0.376434055758243
0.468841497387417
0.451725448511764
0.491608292738496
0.385368867216967
0.386236288531581
0.447666296376305
0.466351658063444
0.475405827615177
0.435325463911366
0.424205390143164
0.469641054747642
0.536226625578057
0.483229208673788
0.444226847853808
0.412274296937076
0.46698753153717
0.418794775869407
0.455922281782426
0.483912409573747
0.492213646594795
0.476406895714679
0.51689671386023
0.541560246639849
0.355116761627766
0.362065791044609
0.405867938169663
0.353103645818622
0.436144997113866
0.438179962005559
0.468521300239362
0.471308095058509
0.423691571594378
0.418334275612775
0.499670127942594
0.441902737302433
0.393439791491851
0.463515372721277
0.474206602287399
0.444448724683773
0.499178058967216
0.478289106971722
0.457357844343421
0.466798271449383
0.492909091142836
0.448929131059578
0.419252663886133
0.465220787024709
0.4804573931626
0.500471416379877
0.474493823525284
0.454131752515998
0.507816781288323
0.473323577715568
0.520351220772056
0.476509863020931
0.481685393739398
0.478406966427906
0.437938085890844
0.43865242333838
0.437938966362393
0.576241491943342
0.477990550689186
0.536020582714313
0.50745781685777
0.583964015034323
0.538353598658085
0.431651807809214
0.477638042975289
0.5395823200354
0.510409278906526
0.610259771678617
0.495605483476812
0.421406796573388
0.522204165601581
0.455409056159523
0.504745105805039
0.557449040597174
0.520229058283365
0.521075420847517
0.497505944363425
0.501319118921475
0.504760070507774
0.371237890133201
0.532124119655193
0.563246091913622
0.450125462175529
0.440182063035364
0.54860441994853
0.443451098737252
0.436130494503644
0.560822784886164
0.489933230251014
0.586165872221695
0.460580874240704
0.495749844880926
0.539825602557916
0.556481672817851
0.5536693047245
0.541133812424919
0.521344087914238
0.505146867134516
0.559405141417117
0.517312823893542
0.55900860648345
0.593586495606521
0.428007981348986
0.640879374210103
0.529233139220495
0.636839859512373
0.658777343037527
0.517933125898108
0.610406239838247
0.785053108713936
0.611189567732551
0.65641582308624
0.658826741871855
0.71585838088265
0.717169778073841
0.625502328240272
0.661080692536979
0.710347474291242
0.700447062541093
0.840296756985624
0.745661085447332
0.755785490419699
0.702206595720873
0.68889605563944
0.804159113172213
0.764769578889302
0.817271200134758
0.753420636674502
0.849972844242996
0.724681611181977
0.90387089586124
0.878042547352229
0.851406046897523
0.798024019624386
0.846383101877553
0.889155393518126
0.947010940730267
0.84512517925201
0.971740388561751
1.03720841155412
0.865854111456935
0.905878954187195
0.841395042647849
0.780231233931482
0.931424260290066
0.884424377404312
0.81600187383011
0.839025301369433
0.813684783859737
0.74390770828152
0.664696752325051
0.798259387985113
0.769328679883035
0.755438891703122
0.733791977505086
0.677047828814757
0.73364228283755
0.759619816501237
0.690276687895023
0.757711127639022
0.713365746056324
0.713752141220319
0.639188770400177
0.664242804901589
0.714789363041306
0.64660505746223
0.686002760423269
0.768635312862525
0.701322643399386
0.705246867731914
0.763214238360166
0.694786704137169
0.645723179498918
0.713217803070363
0.560241758060928
0.57018273677392
0.704020695268804
0.62463904543243
0.59863244760448
0.622461791888572
0.585161989955978
0.582585709471032
0.576660829740108
0.567116860351104
0.546445880660319
0.589455638030415
0.562529578738613
0.662172352296566
0.600671693894628
0.63877995500764
0.579535370921043
0.581265112496264
0.647070775328205
0.656400907911149
0.583437020694371
0.665229655238247
0.603207945973945
0.596663799056478
0.686653094428307
0.652653083540751
0.620047609144922
0.593613347577602
0.545397038492545
0.565371134206662
0.661047681468171
0.46768811588107
0.535730345828982
0.556954827738199
0.5726245111245
0.474832526910121
0.589295676586987
0.598144662344146
0.513467093181555
0.546325261952776
0.49742813783503
0.638148632936335
0.574412540090251
0.542008100022187
0.507095664762426
0.557117246395084
0.6352139920026
0.537568825149095
0.514276179293426
0.409398787328198
0.450529854441743
0.453837364004938
0.318763360818237
0.417054937146742
0.456718820545954
0.228356835535299
0.175726160606951
0.248234473505735
0.340345402518783
0.3488320468153
0.395517013433917
0.45429100351998
0.451261135341985
0.472821195480059
0.684619864281512
0.67069850362791
0.647212791422865
0.810915480896077
0.742775487733226
0.852080980033885
0.945733492198169
0.917184457701933
0.992272222525557
1.06175278427682
1.20841528319266
1.18427321049535
1.1918818611037
1.2511036491886
1.29888415794108
1.42875995694247
1.39973039579901
1.42488905177936
1.52703094441235
1.43570837877436
1.40554308982259
1.33929401032146
1.27111785278998
1.17456182556277
1.09927157630407
1.08824856189581
0.86052414686727
0.826600638548869
0.684653546790243
0.740816760578932
0.621364696435984
0.530761796872185
0.385118699354135
0.405781763047626
0.309064232622166
0.179752078099785
0.115060103364331
0.0602735633666904
0.0112985799633135
-0.133183916979909
-0.134404615609238
-0.169080045293652
-0.293257442356929
-0.383884814326758
-0.26486167510866
-0.156098546418785
-0.164567686687485
-0.096657646336713
-0.0761978120566014
0.0156226691487105
0.163718458789303
0.196656256813556
0.309482314837625
0.373664364297174
0.427873930201485
0.516332640708657
0.553359846653914
0.505213718537262
0.496857414076666
0.472598469166788
0.411818121555652
0.447869942967499
0.488596346505558
0.415918866755194
0.494085506017341
0.485993188044991
0.47404987054003
0.483306782123559
0.468612489385156
0.465504825219779
0.465355919915536
0.511452827334176
0.459644709598476
0.331295290249189
0.438231334432329
0.471523569574528
0.508897453256884
0.52911381630446
0.412210669843668
0.49651351138487
0.469552382984183
0.446423942040054
0.457265829397696
0.453810568678896
0.461419334693739
0.465466941839965
0.419196450852078
0.399710140633978
0.499434728070227
0.439344824370862
0.520245697708769
0.402495826451187
0.418184372675704
0.518141440667096
0.516644304853643
0.394000139167531
0.454962042935301
0.510878251083912
0.509644768918632
0.377950459440057
0.522300243606578
0.473649891888804
0.451121280020009
0.427661405794014
0.389826794888272
0.442063614227726
0.423662350555916
0.551191800297839
0.444374470550411
0.42538753917004
0.432542552141053
0.401793332037728
0.535206499350292
0.462653960832156
0.433733707628834
0.485338625072085
0.426705122944766
0.422660388988929
0.398903033995864
0.395145332802634
0.50533419801015
0.462717563660859
0.427825720041328
0.50788325775567
0.423033247991343
0.435539950634407
0.349229103756826
0.443173996342238
0.346230621035284
0.368368827683559
0.46443805789729
0.433716534916557
0.371727511977891
0.394621486460095
0.426535893622821
0.423901626520171
0.326514579179325
0.350985100676822
0.321813434629337
0.406020789468942
0.322775883632704
0.443111941895946
0.356930735110529
0.351069048182219
0.495104638867383
0.512882105917642
0.36298527665826
0.405569366087826
0.509044738226013
0.387353913094591
0.503715114307766
0.462303031778099
0.427561352421576
0.410601737005732
0.516388161150804
0.470755910079521
0.407037886029334
0.461785095262529
0.401723390620175
0.456541433419051
0.529160759763574
0.482631936082589
0.421528885264049
0.480384141121867
0.43156749211739
0.570896058817962
0.383718036479387
0.443900328594179
0.518921066144589
0.442804037471842
0.488188194401764
0.523493239517641
0.557124109697164
0.451357864879533
0.492690674128732
0.481073626090653
0.502418269041286
0.530076981148306
0.484144565639868
0.558553778795471
0.543355518247603
0.501876870902922
0.54276369071712
0.572704763620212
0.567676087476404
0.545958478725297
0.503825408353106
0.470597704829895
0.507335156858978
0.467350440721624
0.468580213419431
0.52595260474281
0.546590447399496
0.49855808371718
0.565957313123809
0.381358575195115
0.453482778006786
0.451639946720187
0.522129329939316
0.460993978748041
0.41426561656411
0.452695764591443
0.45163441381962
0.423170803746418
0.307193036233849
0.454248209058827
0.223044378058749
0.397623257652953
0.309109509092972
0.363447844188686
0.445658570834258
0.344584255925011
0.460644292890632
0.398233145879523
0.341517169163244
0.30319064894388
0.318099425698432
0.356146584881953
0.213422547583316
0.360895150424103
0.342308196629649
0.367471099449233
0.427096069636855
0.30672642247376
0.272079422883523
0.378281143552249
0.362221470185591
0.30853869887146
0.284204601055975
0.324516884936557
0.253774805307596
0.311761550742015
0.274753487796841
0.263877232683546
0.351433188593526
0.3027458605006
0.36697613369714
0.243295491868406
0.307820354455576
0.241690936060249
0.3239358822343
0.357251710394506
0.342174554068418
0.184230877469137
0.323086443365984
0.288435463771224
0.303713666416368
0.258629361840605
0.202450782850056
0.328639663924
0.257647222503354
0.265510442528805
0.289417689912449
0.406837001506944
0.393681333070273
0.21206695412704
0.253293263297989
0.325369099650852
0.171348678383036
0.336201305999171
0.257238020952509
0.341964699946717
0.227005930228294
0.223876377232396
0.384720144926567
0.297400660204687
0.251511618261617
0.214351792632506
0.320167536694512
0.281105446538577
0.149800338876034
0.216835709165759
0.409501447511225
0.259411685202565
0.159023046559845
0.21359923443252
0.236004880126797
0.290728917814172
0.246862365248203
0.259078832083138
0.252107076927953
0.203983645407668
0.309640282262772
0.231736365835626
0.225829467772859
0.25774947859887
0.243652674867407
0.219923493166587
0.251354988052115
0.349650923696762
0.270064054806711
0.209245736329261
0.197523563642892
0.228055105416181
0.160200633969843
0.329287561401277
0.247213373940771
0.177830210379233
0.241030490932251
0.161824081292305
0.262117302302333
0.222926726658748
0.233100489081793
0.248092097302609
0.271685731115242
0.187511399091404
0.153647466566575
0.220805188129914
0.183854330405233
0.245249070778463
0.130265781378652
0.26492875443962
0.236319682532406
0.164421912372373
0.203137963905404
0.259893132692384
0.338323265528558
0.198445527909992
0.284098091947407
0.170967226889985
0.2233445236848
0.201625138104718
0.228012851758952
0.185094392743724
0.137930266701889
0.194461292321358
0.228983155490518
0.180692811396001
0.195782588374825
0.224099950498252
0.229961412063737
0.165320339107702
0.187581400532967
0.243529921385729
0.215811399373056
0.131151912911871
0.27521370954568
0.166261656432768
0.161438319025188
0.12446048636214
0.189431995964764
0.189051381978221
0.177324530635055
0.150754364939007
0.108979557441046
0.34190480978654
0.265595877711042
0.171877646722895
0.183356634948963
0.206319032160617
0.187040480551963
0.158402733655965
0.2328958336093
0.128551628885605
0.282602751716489
0.095852741899324
0.167120872354038
0.22619057190725
0.187730105236079
0.105954969385173
0.226472843547912
0.187816701644297
0.138194287473816
0.198386707273445
0.215282446647932
0.294877351341255
0.189147031009244
0.187306644703376
0.184957460394412
0.122028580463474
0.252628355392777
0.132019554302319
0.229429028355265
0.237350092015894
0.301539723517613
0.128904204949345
0.321547813232747
0.257862141566461
0.227355041405103
0.299750536044219
0.320034865681635
0.295338237634031
0.251256379762735
0.393230620326422
0.35095750655392
0.313927409982046
0.418270340386965
0.38399128940485
0.310437781179741
0.413046853815253
0.300402411423376
0.345463958340814
0.414113947236287
0.435280717534511
0.426423194395242
0.334427765858987
0.480195987696736
0.510528533419186
0.513988612155767
0.435285760143104
0.452288172268553
0.410930558977423
0.46413176250887
0.454046918414342
0.392685941742041
0.467056368963232
0.453506182507235
0.433573823609836
0.352863506142682
0.313430840917321
0.402786395437129
0.43235518404493
0.285307260620371
0.229223308359289
0.401257383226613
0.316187576302883
0.367980718197931
0.348185275410447
0.227799893782178
0.256954108095408
0.226620166923555
0.267170445860386
0.306320770969236
0.240624155871371
0.1226419755106
0.279228131307169
0.207416062226182
0.174124855324238
0.0817620743612612
0.195436197242634
0.17881834743065
0.173307490963587
0.0922944819969976
0.0995088325299372
0.0800197946969238
0.205033026001758
0.0644543998113014
0.0944547794595492
0.0585989293348883
0.147459317195774
0.100124394104915
0.103194150795396
0.145340012169438
0.130946833757677
0.135299163123675
-0.011820527648159
0.104628758942235
0.140762324099337
0.108763522661559
0.13517035140876
0.194954778322199
0.150140460748578
0.0303676076957713
0.0438384139838672
0.0780695007519472
0.0508446549844342
0.0778424795645532
0.142011386458153
0.0528532262953379
0.0639320481083556
0.0656727754698449
0.109594986727084
0.126526598385058
0.0660272423146168
0.056462071345323
0.117811642306889
0.106111883153123
0.0931726894518399
0.230889155247087
0.0679800268359063
0.0822745057540358
0.0598499796641923
0.0936633537394683
0.0354081095745442
0.110859176409569
0.150744721265649
0.0623697829455066
0.0535049133587267
0.0275636493334868
0.0308739868433049
-0.0318082661573361
0.0494982274981145
0.00693279670003555
0.086600426847216
0.00440378785057354
-0.0278358004793161
0.0121510427843232
-0.173753143016751
-0.0956821659321276
-0.192254152425042
-0.198721616752981
-0.180825264042035
-0.176356733181383
-0.289966713755608
-0.169952757222797
-0.0741642798179457
-0.139313430971729
-0.0956400291367862
0.00390655456384686
0.0863624858916375
0.10561733373188
0.115251459731773
0.21235059714889
0.267472077311072
0.285415977339981
0.302145004391213
0.430462813385352
0.460074770680895
0.49159648126877
0.528709312636693
0.585780360938126
0.617962375239801
0.659842799796371
0.825644454948383
0.800825412207705
0.77697215796843
0.889537108359975
1.0174937924866
0.988092301414499
1.02930756168744
0.826905416331086
0.753673437740972
0.665106043231265
0.700395315755332
0.538638764627339
0.513949865155365
0.336119172668971
0.315332328939479
0.302368381744909
0.13082737773855
0.122794338102031
0.0731489604403357
0.0600918271590485
-0.0703354717831007
-0.127613983618938
-0.265221224294123
-0.349008655343432
-0.389803452788366
-0.509852575346426
-0.481641869187302
-0.571513646322776
-0.634739625812332
-0.692384525951381
-0.83337897664072
-0.785925673990745
-0.65987091218618
-0.557639303357704
-0.501403090733244
-0.426127969694005
-0.327185003757832
-0.316809373957902
-0.200456170184405
-0.190338053016105
-0.07935549080045
-0.118094364510412
0.100105302624818
-0.0645590847195402
0.0356553357694519
0.00924826782593577
-0.0302041245120308
0.0457225889158248
0.0467296795656863
0.101864249016739
0.0393331816198357
0.0625576965147946
0.0470169435335161
0.109432354934092
0.0937627530036759
0.0389539655584785
0.0458242465113549
0.129765373196349
0.0300064572901854
0.0860659487866254
0.000434840558813009
0.00744153308148428
0.0898642235971873
0.0803266000968472
0.102002210838946
0.0186242823672379
0.102369577079674
0.0612526443136119
0.0514689105879152
0.139486142900254
0.128067348484443
-0.0551525368320967
0.0764120891870103
0.0172618098181238
0.045982589602682
0.030433966314893
0.144556518546566
0.126572411429361
0.0934691863707972
0.102062294446825
0.0909858350490073
0.103463122027815
0.0830146559197881
0.0627112366002723
0.0982089773001663
0.0585139843037003
0.0554766823301344
0.0628945219428625
0.0731611948750844
0.0791554216276974
0.2065299930802
0.0199643138702457
0.0287251908497738
0.0958019078713296
0.0821546561593192
0.0493639531827472
0.103407095161211
0.125893538958951
0.0317441703929267
0.070223149653007
0.0274074350064112
0.0971678953431466
0.10236523043782
0.129490255512773
0.0422293934979168
0.112608647607197
0.0917548703272423
0.169704220540876
0.116630160620239
0.075619836288188
0.0922186886683536
0.0780405351064119
0.177988873253862
0.0816690796732778
0.0280685461320589
0.0995344218206058
0.167957997856042
0.145133635810108
0.121359554477781
0.203611866070908
0.086142271168055
0.129665914847527
0.074308678109509
0.0796907816435629
0.103055875727056
0.153839971708347
0.225351708786602
0.163778713352622
0.0714640073961775
0.115946360383442
0.0996682340267366
0.113929488759429
0.188774497174792
0.149818905768961
0.186000563456158
0.1720671328288
0.10772292554291
0.199380827301451
0.0907932009776467
0.20377478455872
0.199239874838592
0.229752140735309
0.109216298660596
0.175494278181147
0.192044429254381
0.20163904089511
0.245911992201218
0.242601565371521
0.245640336526905
0.227438760507295
0.307785454114396
0.213202755086211
0.239987711852027
0.211568401741782
0.24279930072571
0.287627787392337
0.195454000823119
0.271840315115525
0.231025559487754
0.312658397435503
0.180442752714294
0.186408346714836
0.370871926868507
0.287658940405045
0.20218923094451
0.221768454435586
0.30720193816218
0.332390020184445
0.339370689308609
0.381315689694642
0.340140484640152
0.314346533065599
0.364935864247391
0.410018473906396
0.302937304047438
0.284103729144034
0.342581009663322
0.259823292751914
0.205557879224749
0.268914775758429
0.281029675170644
0.270583436928541
0.201916821507467
0.222501342183298
0.212901298591729
0.289155735643593
0.229390293057814
0.262927836012174
0.254910686008064
0.209887213275172
0.114999601265005
0.226713768499483
0.238291641907909
0.159991621678173
0.191302902364936
0.164592873773901
0.266270129851349
0.174202235781757
0.180453891521251
0.112394799341198
0.122544099725448
0.0860117947905931
0.184796510558005
0.173253881317358
0.0960075763291376
0.276331366933556
0.176098820495072
0.148624399450443
0.222337039620791
0.00193636368469374
0.118360469512402
0.119872535215097
0.129296237318903
0.0655765993668554
0.142153571736789
0.00302218763658421
0.117441844249092
0.132209393194844
0.106407149645584
0.124865176339659
0.0666577339315835
0.130511715105055
0.0824965289801918
0.0164633603219729
0.0821027749652305
0.0648099509017256
0.042770440709752
0.118249925527901
0.0940236556693711
0.0782634884902734
0.0626132040734293
0.172829697486457
0.146650143850673
0.0775469342982406
0.0903286321565586
0.160628005064215
0.173663536009036
0.138131027210733
0.0657076272219225
0.0518592539591976
0.117579361832929
0.0358132841168864
0.0244562210025926
0.0592381600658915
0.123793978594386
0.0829640826028958
0.0862470903816261
0.129237483858353
0.0837313959149098
0.0140718760385669
0.112104681924422
0.0928170918077108
0.0635805155217372
0.0463482185556154
0.038770834646726
0.0637996657022557
0.0239743171396706
0.0373904817280405
-0.01233376867863
0.035067905466226
0.0253385474427207
0.0878825888438767
0.130748348111093
0.108774242491948
0.108341174292286
0.0888105271925959
0.0813297304900308
0.0904994337095773
0.0155080512106911
0.0926601222729974
-0.00992752212493406
0.0799386738068249
0.00637936815552825
-0.00152474056008561
0.0233244601944999
-0.0201353752608267
0.0447987399123255
0.0985329588869314
0.0295313054005118
0.0657850816693372
0.0481018746550272
0.0995910492057589
0.0300842209315996
0.0516485518069812
0.159385719917416
0.0923116883880788
-0.0126921557248931
0.0889896027580956
-0.0142113369373511
0.0314953480011465
0.044468342755832
0.0725001522536559
0.00813691051529463
0.0538928888715911
0.114486834492777
-0.0702742497418708
-0.0298374061331333
0.0827470446962376
0.00730257716032235
0.0190911094848292
0.0661967283171498
0.130153057270104
-0.047094770414689
-0.028449542042133
0.0121249915216976
0.0150255223659967
0.0193427721166093
-0.00262322669185873
0.07298233407305
-0.0344780696343384
0.0201988317079847
0.0584873723311322
0.0267599788163491
-0.0241063104540846
0.0120277496854786
-0.0108698021327451
-0.0259841926552555
0.0706576955739853
-0.0078833827247215
-0.0279000980306962
-0.0367984752021236
0.00833331995256986
-0.0712453222668715
-0.0774878242641546
0.0157383684742645
-0.0571216120279269
-0.0113522074110207
0.04868376626748
0.0572944865978413
0.0896871531688094
-0.036744378892201
0.0578424266314516
0.0325448081541785
0.0801757924413864
0.0298351571981317
0.0608604355896001
0.0783450847546586
0.00206180048304953
0.00086746681278865
-0.0412583356180338
0.0220924594629692
0.0455131412537181
-0.00814272097046095
0.0338891230615741
0.0137407942435226
0.0112497465170069
0.0730741181497684
0.076197311389189
0.0940696572918254
-0.0163201674849836
0.0323950891805349
0.0732291626558102
-0.0140176852779101
0.157173157569965
0.0826795365460309
0.0539466226303786
0.143019155922058
0.120416149774532
0.117202879686292
0.0879114891923852
0.0438320761023626
0.094104099701516
0.120181644988377
0.185270456704376
0.203549769850779
0.143740616977939
0.2345952503289
0.236738082072009
0.207272978439621
0.176167370003922
0.278511604350151
0.237604316470501
0.203596929870445
0.277066328215504
0.300812034686401
0.211732077591872
0.388314630113011
0.197722539714779
0.233594099256484
0.386737679514706
0.351976214698031
0.324452652873528
0.356658900482907
0.402825810675885
0.333039539827734
0.433029447919578
0.431668098056155
0.404725533674708
0.40836281692895
0.3591833210095
0.339610017633459
0.354824250022262
0.417504518558397
0.345912289016101
0.327136375786482
0.292573362112359
0.276683567899506
0.326281185876151
0.369006324992021
0.370387763733734
0.328641739430124
0.277000043908497
0.265890982236331
0.29437206371608
0.314781539512517
0.308440998649609
0.145601823399569
0.241043994514729
0.186847395435212
0.203443198521861
0.305586230678911
0.171767561113908
0.11827340632565
0.20313384101091
0.179877817967237
0.157143161154285
0.213713026171102
0.189865727298348
0.172174380654925
0.131350048732804
0.154521875457173
0.114270800318741
0.12995927033711
0.141304548789641
0.130273209693276
0.0804647614423375
0.0880712022550311
0.0637297689231711
0.166417642913339
0.116066499327766
0.0853350070361747
0.152888017736038
0.0942748003251686
0.142932508513287
0.197279777645087
0.169151631104589
0.115071453311036
0.118203451394524
0.221567435759479
0.116986957267942
0.141401094416091
0.143457872015523
0.174216041076229
0.139554539389779
0.147918213283428
0.146529063371947
0.265687463111587
0.1758565015278
0.0890443276242919
0.0728122486785297
0.0537583831079471
0.227320163126025
0.0951856207932957
0.186554457442898
0.164454338183661
0.0622428630489774
0.240537948199747
0.167825556549322
0.23203364948967
0.15897452350942
0.151636143580218
0.0925079264354752
0.146169582688336
0.151961544605286
0.0698685364975579
0.145790997014834
0.15571502364571
0.11231092590815
0.16971439787046
0.0893684453432645
0.0961186205812063
0.10488131993595
0.0441627628075337
0.0703131517826385
0.0058888286645791
-0.0448706278089514
0.0202206807186679
-0.0215510556457793
-0.0481792691407598
-0.0676859387912822
-0.0766645662143044
-0.0250666336479614
-0.0204002190949557
0.00792717642776455
0.0774332878177955
0.197384462236568
0.128123944055891
0.212322676604817
0.345233227121978
0.38789330657513
0.37334183424903
0.440303182168363
0.495379683371575
0.541925011484144
0.486057882625442
0.639379620587591
0.728724205778816
0.888375370883696
0.745190633700992
0.839070379831626
0.90409923890801
0.92878442760353
0.994735073651924
0.984736956664207
1.12785369459848
1.16007452717135
1.14018980316284
1.04375175047834
1.02161289177086
0.976799542358373
0.82929607456656
0.688742023815396
0.690291024773126
0.675438335882736
0.528192435032869
0.479787916909444
0.33953172867282
0.390747449156603
0.262920350568055
0.149062428131512
0.0139089627117587
-0.00933066017670345
-0.0988677453839728
-0.144695671719538
-0.175286702856904
-0.223718816886583
-0.329964134475808
-0.406119391437371
-0.464133566693302
-0.422763620302943
-0.611347352433734
-0.550029255188354
-0.407260791979807
-0.410759901078521
-0.377971220624009
-0.226812106824875
-0.220386045195664
-0.12147118861648
-0.0168484986747029
0.050651653862224
0.00100279534204187
0.0339821521179548
0.18791499459956
0.306781418216826
0.237126151047737
0.218971124257299
0.219950587185608
0.28083950771392
0.246641716099057
0.255094112331121
0.127964944586342
0.224974548876991
0.235821952908472
0.193047431487042
0.236087580964944
0.208305444362688
0.283102651265235
0.21225319341575
0.307214045919828
0.241034113824396
0.289129118106209
0.359781635803595
0.25006645757655
0.322640815099882
0.195474385129967
0.341451083380935
0.191048648539432
0.249386780820614
0.237500798602115
0.197571334388157
0.190813038503204
0.289720526435694
0.189127455428681
0.192739757104467
0.317403742694379
0.262231202454278
0.282316845007471
0.219452323399641
0.255865442107586
0.282238489116363
0.276450501976042
0.358667862166831
0.239246054601484
0.264138385411086
0.314433438288448
0.321413495435012
0.176508315848455
0.256787516332912
0.243732142185931
0.277952908486279
0.305698951700863
0.303367949383519
0.339357636946315
0.305883026102215
0.300457242261674
0.333151061036962
0.308490894202856
0.222013646902134
0.294921323724246
0.207880408967514
0.347336365088319
0.18759592384633
0.266683418721815
0.300074557065202
0.294636784273059
0.391880396296245
0.301693317309233
0.26941203045688
0.330643622421049
0.242143600995325
0.330931827605951
0.317398074414679
0.286400436280327
0.276121967671864
0.2488864832127
0.215673240386331
0.289582406820634
0.350831178479952
0.277459036176621
0.393573574150995
0.271112278956939
0.423755576335514
0.283291447832215
0.324051475714396
0.392021784421417
0.383129175629683
0.284763144651777
0.36076053318752
0.269299818687258
0.240910680649819
0.360448506739323
0.24209454298736
0.222859222527715
0.327946769288709
0.405706380947954
0.402785331354314
0.272614690324145
0.354704079671437
0.398456161283157
0.412477990133719
0.447294696543483
0.454043173890426
0.423018278701501
0.314451932014797
0.393133892762762
0.327625887894782
0.463747707048328
0.494670674087086
0.31296479354823
0.460287090658253
0.40684401778782
0.405559522054406
0.390475249511591
0.503574469050746
0.465035764456662
0.445405031248687
0.477683450517988
0.512954875931871
0.42429060381507
0.433505147539597
0.513136978480549
0.56346820370889
0.552166192940762
0.489349768125626
0.434014149947826
0.388935050675228
0.465219855861226
0.57349909141566
0.495037032209519
0.542152686841741
0.535132374555878
0.410882554247545
0.580101673020821
0.615310580437683
0.508657800766173
0.557059124854656
0.465790565696497
0.529991814539924
0.602872716015273
0.558825439346546
0.454769402700321
0.435313121094708
0.485476831650407
0.467497440916715
0.472738907076723
0.53595846792229
0.479987238690526
0.548658788218313
0.459836940314972
0.451850468747051
0.494699539589915
0.472880482209588
0.437599069144794
0.365213515042845
0.385329742595587
0.468518834971839
0.461376602444033
0.357335898091648
0.433253420433981
0.450253085510847
0.361550402083722
0.366929162326079
0.473069345643202
0.322209665463059
0.428748313248706
0.451852149902291
0.31357918563025
0.396825497290962
0.344765978196417
0.408218846663459
0.382805345329404
0.321559858342616
0.435197867722362
0.434300346537805
0.373763363355991
0.431271896542356
0.337855118457151
0.343525656229414
0.347784825327197
0.400183315329585
0.379632877084146
0.50160043478488
0.402673108406535
0.434513075810524
0.435317790280293
0.425393780368552
0.41658469381255
0.470204258843332
0.350792010140394
0.491763484629438
0.445316483982483
0.35452566874312
0.468507865018784
0.473128188422347
0.500366404567729
0.394984229125788
0.498968886561668
0.43117342558008
0.345825846562875
0.381191450875129
0.467474400527903
0.511647886988236
0.363842411921841
0.418441206952743
0.392161709607284
0.51998670696581
0.382195956154861
0.494575286008178
0.397771343451274
0.468833944096707
0.364787315096618
0.507013832598055
0.322854857054309
0.450125735133657
0.456050222399125
0.394964943133095
0.388677062332132
0.468467410035164
0.38718942963038
0.438588124090804
0.300011660287582
0.337947522523093
0.440762343573743
0.49989774971323
0.362524820591587
0.479933360793063
0.4717161623826
0.41857657117065
0.447803766990642
0.559565650494734
0.380970949301695
0.476004974519549
0.463377533854217
0.47010423855828
0.454705975859054
0.470069454105665
0.444433037751492
0.373327026839456
0.429799190745248
0.47172213654234
0.47393931103164
0.492182820889231
0.574048267804126
0.381293468530071
0.499020524793383
0.472791465368044
0.465100627397543
0.433343138414793
0.462623749293648
0.504018092198412
0.492310729840605
0.391716526268249
0.518310537602356
0.48647570715679
0.569711410599374
0.420381066984681
0.440897911336588
0.39039066035278
0.479180615676804
0.529757214505224
0.457051532310834
0.456044931933174
0.468267012938653
0.475972504439838
0.536175802631634
0.486794736826241
0.462867146617248
0.51973372572856
0.420778097619538
0.519931240030257
0.48067509430446
0.598968316985527
0.460559311283022
0.515179612101809
0.500893267420868
0.44196107614406
0.54077633449836
0.386685917245248
0.401694434745979
0.434520266890933
